# mX (MeV) BR_limit_90CL  --- https://arxiv.org/abs/2002.09170
4.85403096e+1  3.73058706e-5
4.88655593e+1  4.07822508e-5
4.91929884e+1  4.50486034e-5
4.94565106e+1  4.87202066e-5
4.96716614e+1  5.27481221e-5
4.99711087e+1  5.84897816e-5
5.03227462e+1  6.31307530e-5
5.07078907e+1  6.77019566e-5
5.09823653e+1  6.13466802e-5
5.11870592e+1  5.56161627e-5
5.14222247e+1  4.91080437e-5
5.17196639e+1  4.45256141e-5
5.19273180e+1  4.13390876e-5
5.21706352e+1  3.78284845e-5
5.23626126e+1  3.44799884e-5
5.25728482e+1  3.13871049e-5
5.28427115e+1  2.81549103e-5
5.28838989e+1  2.69464068e-5
5.31731110e+1  3.00264644e-5
5.33687773e+1  3.24802405e-5
5.36331739e+1  3.59214771e-5
5.38880829e+1  4.04290275e-5
5.40863801e+1  4.40496785e-5
5.43761158e+1  4.90164100e-5
5.47770382e+1  5.08737348e-5
5.51809167e+1  5.10420375e-5
5.55877731e+1  4.78460680e-5
5.59976293e+1  4.53527070e-5
5.64105074e+1  4.21687764e-5
5.65991843e+1  3.83277771e-5
5.67695329e+1  3.48187386e-5
5.69213844e+1  3.18905204e-5
5.71367136e+1  2.76796357e-5
5.73793801e+1  2.45775149e-5
5.75520770e+1  2.23501745e-5
5.77060216e+1  2.01982656e-5
5.78849727e+1  1.86054487e-5
5.81509100e+1  1.65859559e-5
5.83259290e+1  1.52740387e-5
5.85470727e+1  1.40478870e-5
5.89918789e+1  1.46281935e-5
5.93276998e+1  1.50592321e-5
5.94268340e+1  1.71816922e-5
5.95460137e+1  1.88998817e-5
5.96654324e+1  2.08465903e-5
5.97850906e+1  2.29938120e-5
5.99483445e+1  2.58625762e-5
6.01053537e+1  2.97421690e-5
6.02258942e+1  3.27164209e-5
6.03466764e+1  3.60371414e-5
6.04677009e+1  3.97490066e-5
6.06356740e+1  4.54001076e-5
6.08322324e+1  5.26187027e-5
6.09542306e+1  5.75662175e-5
6.10764735e+1  6.29789264e-5
6.11785299e+1  6.81541666e-5
6.13480273e+1  7.61444190e-5
6.15884633e+1  8.71709756e-5
6.17738284e+1  9.60510139e-5
6.20409698e+1  1.08337165e-4
6.25208847e+1  1.17722873e-4
6.28977939e+1  1.16594895e-4
6.31714185e+1  1.05932718e-4
6.34603586e+1  9.79348749e-5
6.36371899e+1  8.66231260e-5
6.38074114e+1  7.75754601e-5
6.39567288e+1  6.98150265e-5
6.41278050e+1  6.39442238e-5
6.45575004e+1  5.83903676e-5
6.48816604e+1  5.48839676e-5
6.50117797e+1  4.86880555e-5
6.51639154e+1  4.41855078e-5
6.52946008e+1  4.05524489e-5
6.54801871e+1  3.58988321e-5
6.59960285e+1  3.58728774e-5
6.62941987e+1  3.51826234e-5
6.63495630e+1  3.17342233e-5
6.64826262e+1  2.85360687e-5
6.66159562e+1  2.59766409e-5
6.67049914e+1  2.43328378e-5
6.68525031e+1  2.16692896e-5
6.71519555e+1  1.91517892e-5
6.73315786e+1  1.76041586e-5
6.75868675e+1  1.57717457e-5
6.79413613e+1  1.42036407e-5
6.82369270e+1  1.29381357e-5
6.85337784e+1  1.15671425e-5
6.87630041e+1  1.04325457e-5
6.89837820e+1  9.83502006e-6
6.94784875e+1  9.11943988e-6
6.99907618e+1  8.97460717e-6
7.04127035e+1  9.06106437e-6
7.06482137e+1  1.03067691e-5
7.09760918e+1  1.17398122e-5
7.11215998e+1  1.39985382e-5
7.12166570e+1  1.60842989e-5
7.13118412e+1  1.84808347e-5
7.14071526e+1  2.12344507e-5
7.15025915e+1  2.43983511e-5
7.15822213e+1  2.76451289e-5
7.16459890e+1  2.99577370e-5
7.16982048e+1  3.27261104e-5
7.18136495e+1  3.68966886e-5
7.19096317e+1  4.05313164e-5
7.20057421e+1  4.43424653e-5
7.21019810e+1  4.88101621e-5
7.21983485e+1  5.35089552e-5
7.22707086e+1  5.75916611e-5
7.24454133e+1  6.46634917e-5
7.30320687e+1  7.27169448e-5
7.33648543e+1  6.52284802e-5
7.35365372e+1  6.03151483e-5
7.37824957e+1  5.33571667e-5
7.40540004e+1  4.77675612e-5
7.42272960e+1  4.41143713e-5
7.44985238e+1  4.01027070e-5
7.50748035e+1  4.34522474e-5
7.54769721e+1  4.74417828e-5
7.58812951e+1  5.24973904e-5
7.64407782e+1  5.37513405e-5
7.68502642e+1  4.99836975e-5
7.72103635e+1  4.51060479e-5
7.75351556e+1  4.08949157e-5
7.79025179e+1  3.59496855e-5
7.80397964e+1  3.28491042e-5
7.81963042e+1  2.93381557e-5
7.83531258e+1  2.59538806e-5
7.84840507e+1  2.34338447e-5
7.86199674e+1  2.07692175e-5
7.88254803e+1  1.82396357e-5
7.89835637e+1  1.63791375e-5
7.91419642e+1  1.46684122e-5
7.93448271e+1  1.30072725e-5
7.99520917e+1  1.38381156e-5
8.02061164e+1  1.48504654e-5
8.03133154e+1  1.68069313e-5
8.04743827e+1  1.86901487e-5
8.05819403e+1  2.00614496e-5
8.07345596e+1  2.20051150e-5
8.12574398e+1  2.51187081e-5
8.17746040e+1  2.64047880e-5
8.22361964e+1  2.62262099e-5
8.24601014e+1  2.37407124e-5
8.27836391e+1  2.09489550e-5
8.32942609e+1  1.87039473e-5
8.36526258e+1  1.83240112e-5
8.42131494e+1  2.05352905e-5
8.48340644e+1  1.83013707e-5
8.52600383e+1  1.90569113e-5
8.56881511e+1  2.06135915e-5
8.62911229e+1  1.90447785e-5
8.64160727e+1  1.70538326e-5
8.65123111e+1  1.56091237e-5
8.66086567e+1  1.39124236e-5
8.67244130e+1  1.22824996e-5
8.68403241e+1  1.08435309e-5
8.69563900e+1  9.85085756e-6
8.70547208e+1  8.99936092e-6
8.77371422e+1  8.95009738e-6
8.80079893e+1  1.01083995e-5
8.81844881e+1  1.10890094e-5
8.83023506e+1  1.17416283e-5
8.85040636e+1  1.28559996e-5
8.88940302e+1  1.45557720e-5
8.92076014e+1  1.59154752e-5
8.94299309e+1  1.82272046e-5
8.96092814e+1  2.01869268e-5
8.97290482e+1  2.15797083e-5
8.99459561e+1  2.38198486e-5
9.06324163e+1  2.63950246e-5
9.13006613e+1  2.31696149e-5
9.19738335e+1  2.37906857e-5
9.26519690e+1  2.63894324e-5
9.33351045e+1  2.60548528e-5
9.37098445e+1  2.59288019e-5
